# time, angle (radians =pi is forward >pi is down), range (negative if no return detected)
1623900713.698 4.01 -98765.00
1623900713.737 4.04 -98765.00
1623900713.795 4.07 -98765.00
1623900713.834 4.10 -98765.00
1623900713.892 4.13 -98765.00
1623900713.931 4.16 -98765.00
1623900713.989 4.18 -98765.00
1623900714.028 4.15 -98765.00
1623900714.087 4.12 -98765.00
1623900714.125 4.08 -98765.00
1623900714.184 4.05 -98765.00
1623900714.222 4.02 -98765.00
1623900714.281 3.99 -98765.00
1623900714.319 3.96 -98765.00
1623900714.378 3.93 -98765.00
1623900714.417 3.90 -98765.00
1623900714.475 3.86 -98765.00
1623900714.514 3.83 -98765.00
1623900714.572 3.80 -98765.00
1623900714.611 3.77 -98765.00
1623900714.669 3.74 -98765.00
1623900714.708 3.71 -98765.00
1623900714.766 3.68 -98765.00
1623900714.805 3.64 -98765.00
1623900714.863 3.61 -98765.00
1623900714.902 3.58 -98765.00
1623900714.961 3.55 -98765.00
1623900714.999 3.52 -98765.00
1623900715.058 3.49 -98765.00
1623900715.096 3.46 -98765.00
1623900715.155 3.42 -98765.00
1623900715.193 3.39 -98765.00
1623900715.252 3.36 -98765.00
1623900715.291 3.33 -98765.00
1623900715.349 3.30 -98765.00
1623900715.388 3.27 -98765.00
1623900715.446 3.24 -98765.00
1623900715.485 3.20 -98765.00
1623900715.543 3.17 -98765.00
1623900715.582 3.14 -98765.00
1623900715.640 3.11 -98765.00
1623900715.679 3.08 -98765.00
1623900715.738 3.05 -98765.00
1623900717.360 2.98 -98765.00
1623900717.406 2.95 -98765.00
1623900717.452 2.98 -98765.00
1623900717.498 3.02 -98765.00
1623900717.544 3.05 -98765.00
1623900717.590 3.08 -98765.00
1623900717.636 3.11 -98765.00
1623900717.682 3.14 -98765.00
1623900717.728 3.17 -98765.00
1623900717.774 3.20 -98765.00
1623900717.820 3.24 -98765.00
1623900717.866 3.27 -98765.00
1623900717.912 3.30 -98765.00
1623900717.958 3.33 -98765.00
1623900718.004 3.36 -98765.00
1623900718.050 3.39 -98765.00
1623900718.107 3.42 -98765.00
1623900718.151 3.46 -98765.00
1623900718.197 3.49 -98765.00
1623900718.243 3.52 -98765.00
1623900718.289 3.55 -98765.00
1623900718.335 3.58 -98765.00
1623900718.381 3.61 -98765.00
1623900718.427 3.64 -98765.00
1623900718.473 3.68 -98765.00
1623900718.519 3.71 -98765.00
1623900718.565 3.74 -98765.00
1623900718.611 3.77 -98765.00
1623900718.657 3.80 -98765.00
1623900718.703 3.83 -98765.00
1623900718.749 3.86 -98765.00
1623900718.795 3.90 -98765.00
1623900718.850 3.93 -98765.00
1623900718.896 3.96 -98765.00
1623900718.942 3.99 -98765.00
1623900718.988 4.02 -98765.00
1623900719.034 4.05 -98765.00
1623900719.080 4.08 -98765.00
1623900719.126 4.12 -98765.00
1623900719.172 4.15 -98765.00
1623900719.218 4.18 -98765.00
1623900719.264 4.15 -98765.00
1623900719.310 4.12 -98765.00
1623900719.356 4.08 -98765.00
1623900719.402 4.05 -98765.00
1623900719.448 4.02 -98765.00
1623900719.494 3.99 -98765.00
1623900719.540 3.96 -98765.00
1623900719.595 3.93 -98765.00
1623900719.641 3.90 -98765.00
1623900719.687 3.86 -98765.00
1623900719.733 3.83 -98765.00
1623900719.779 3.80 -98765.00
1623900719.825 3.77 -98765.00
1623900719.871 3.74 -98765.00
1623900719.917 3.71 -98765.00
1623900719.963 3.68 -98765.00
1623900720.009 3.64 -98765.00
1623900720.055 3.61 -98765.00
1623900720.101 3.58 -98765.00
1623900720.147 3.55 -98765.00
1623900720.193 3.52 -98765.00
1623900720.239 3.49 -98765.00
1623900720.284 3.46 -98765.00
1623900720.340 3.42 -98765.00
1623900720.386 3.39 -98765.00
1623900720.432 3.36 -98765.00
1623900720.478 3.33 -98765.00
1623900720.524 3.30 -98765.00
1623900720.570 3.27 -98765.00
1623900720.616 3.24 -98765.00
1623900720.661 3.20 -98765.00
1623900720.707 3.17 -98765.00
1623900720.753 3.14 -98765.00
1623900720.799 3.11 -98765.00
1623900720.845 3.08 -98765.00
1623900720.891 3.05 -98765.00
1623900720.937 3.02 -98765.00
1623900720.983 2.98 -98765.00
1623900721.029 2.95 -98765.00
1623900721.084 2.98 -98765.00
1623900721.130 3.02 -98765.00
1623900721.176 3.05 -98765.00
1623900721.222 3.08 -98765.00
1623900721.268 3.11 -98765.00
1623900721.314 3.14 -98765.00
1623900721.360 3.17 -98765.00
1623900721.406 3.20 -98765.00
1623900721.452 3.24 -98765.00
1623900721.498 3.27 -98765.00
1623900721.544 3.30 -98765.00
1623900721.590 3.33 -98765.00
1623900721.636 3.36 -98765.00
1623900721.682 3.39 -98765.00
1623900721.728 3.42 -98765.00
1623900721.774 3.46 -98765.00
1623900721.829 3.49 -98765.00
1623900721.875 3.52 -98765.00
1623900721.921 3.55 -98765.00
1623900721.967 3.58 -98765.00
1623900722.013 3.61 -98765.00
1623900722.059 3.64 -98765.00
1623900722.107 3.68 -98765.00
1623900722.151 3.71 -98765.00
1623900722.197 3.74 -98765.00
1623900722.243 3.77 -98765.00
1623900722.289 3.80 -98765.00
1623900722.335 3.83 -98765.00
1623900722.381 3.86 -98765.00
1623900722.427 3.90 -98765.00
1623900722.473 3.93 -98765.00
1623900722.519 3.96 -98765.00
1623900722.574 3.99 -98765.00
1623900722.620 4.02 -98765.00
1623900722.666 4.05 -98765.00
1623900722.712 4.08 -98765.00
1623900722.758 4.12 -98765.00
1623900722.804 4.15 -98765.00
1623900722.850 4.18 -98765.00
1623900722.896 4.15 -98765.00
1623900722.942 4.12 -98765.00
1623900722.988 4.08 -98765.00
1623900723.034 4.05 -98765.00
1623900723.080 4.02 -98765.00
1623900723.126 3.99 -98765.00
1623900723.172 3.96 -98765.00
1623900723.218 3.93 -98765.00
1623900723.264 3.90 -98765.00
1623900723.319 3.86 -98765.00
1623900723.365 3.83 -98765.00
1623900723.411 3.80 -98765.00
1623900723.457 3.77 -98765.00
1623900723.503 3.74 -98765.00
1623900723.549 3.71 -98765.00
1623900723.595 3.68 -98765.00
1623900723.641 3.64 -98765.00
1623900723.687 3.61 -98765.00
1623900723.732 3.58 -98765.00
1623900723.778 3.55 -98765.00
1623900723.824 3.52 -98765.00
1623900723.870 3.49 -98765.00
1623900723.916 3.46 -98765.00
1623900723.962 3.42 -98765.00
1623900724.008 3.39 -98765.00
1623900724.063 3.36 -98765.00
1623900724.109 3.33 -98765.00
1623900724.155 3.30 -98765.00
1623900724.201 3.27 -98765.00
1623900724.247 3.24 -98765.00
1623900724.293 3.20 -98765.00
1623900724.339 3.17 -98765.00
1623900724.385 3.14 -98765.00
1623900724.431 3.11 -98765.00
1623900724.477 3.08 -98765.00
1623900724.523 3.05 -98765.00
1623900724.569 3.02 -98765.00
1623900724.615 2.98 -98765.00
1623900724.661 2.95 -98765.00
1623900724.707 2.98 -98765.00
1623900724.753 3.02 -98765.00
1623900724.808 3.05 -98765.00
1623900724.854 3.08 -98765.00
1623900724.900 3.11 -98765.00
1623900724.946 3.14 -98765.00
1623900724.992 3.17 -98765.00
1623900725.038 3.20 -98765.00
1623900725.084 3.24 -98765.00
1623900725.130 3.27 -98765.00
1623900725.176 3.30 -98765.00
1623900725.222 3.33 -98765.00
1623900725.268 3.36 -98765.00
1623900725.314 3.39 -98765.00
1623900725.360 3.42 -98765.00
1623900725.406 3.46 -98765.00
1623900725.452 3.49 -98765.00
1623900725.498 3.52 -98765.00
1623900725.553 3.55 -98765.00
1623900725.599 3.58 -98765.00
1623900725.645 3.61 -98765.00
1623900725.691 3.64 -98765.00
1623900725.737 3.68 -98765.00
1623900725.783 3.71 -98765.00
1623900725.829 3.74 -98765.00
1623900725.875 3.77 -98765.00
1623900725.921 3.80 -98765.00
1623900725.967 3.83 -98765.00
1623900726.013 3.86 -98765.00
1623900726.059 3.90 -98765.00
1623900726.105 3.93 -98765.00
1623900726.151 3.96 -98765.00
1623900726.197 3.99 -98765.00
1623900726.243 4.02 -98765.00
1623900726.298 4.05 -98765.00
1623900726.344 4.08 -98765.00
1623900726.390 4.12 -98765.00
1623900726.436 4.15 -98765.00
1623900726.482 4.18 -98765.00
1623900726.528 4.15 -98765.00
1623900726.574 4.12 -98765.00
1623900726.620 4.08 -98765.00
1623900726.666 4.05 -98765.00
1623900726.712 4.02 -98765.00
1623900726.758 3.99 -98765.00
1623900726.804 3.96 -98765.00
1623900726.849 3.93 -98765.00
1623900726.895 3.90 -98765.00
1623900726.941 3.86 -98765.00
1623900726.987 3.83 -98765.00
1623900727.043 3.80 -98765.00
1623900727.089 3.77 -98765.00
1623900727.135 3.74 -98765.00
1623900727.181 3.71 -98765.00
1623900727.227 3.68 -98765.00
1623900727.273 3.64 -98765.00
1623900727.319 3.61 -98765.00
1623900727.365 3.58 -98765.00
1623900727.411 3.55 -98765.00
1623900727.457 3.52 -98765.00
1623900727.502 3.49 -98765.00
1623900727.548 3.46 -98765.00
1623900727.594 3.42 -98765.00
1623900727.640 3.39 -98765.00
1623900727.686 3.36 -98765.00
1623900727.732 3.33 -98765.00
1623900727.787 3.30 -98765.00
1623900727.833 3.27 -98765.00
1623900727.879 3.24 -98765.00
1623900727.925 3.20 -98765.00
1623900727.971 3.17 -98765.00
1623900728.017 3.14 -98765.00
1623900728.063 3.11 -98765.00
1623900728.109 3.08 -98765.00
1623900728.155 3.05 -98765.00
1623900728.240 3.02 -98765.00
1623900730.240 2.98 -98765.00
1623900730.241 3.02 -98765.00
1623900730.299 3.05 -98765.00
1623900730.345 3.08 -98765.00
1623900730.391 3.11 -98765.00
1623900730.437 3.14 -98765.00
1623900730.483 3.17 -98765.00
1623900730.529 3.20 -98765.00
1623900730.575 3.24 -98765.00
1623900730.621 3.27 -98765.00
1623900730.667 3.30 -98765.00
1623900730.713 3.33 -98765.00
1623900730.759 3.36 -98765.00
1623900730.805 3.39 -98765.00
1623900730.850 3.42 -98765.00
1623900730.896 3.46 -98765.00
1623900730.942 3.49 -98765.00
1623900730.988 3.52 -98765.00
1623900731.044 3.55 -98765.00
1623900731.090 3.58 -98765.00
1623900731.136 3.61 -98765.00
1623900731.181 3.64 -98765.00
1623900731.227 3.68 -98765.00
1623900731.273 3.71 -98765.00
1623900731.319 3.74 -98765.00
1623900731.365 3.77 -98765.00
1623900731.411 3.80 -98765.00
1623900731.457 3.83 -98765.00
1623900731.503 3.86 -98765.00
1623900731.549 3.90 -98765.00
1623900731.595 3.93 -98765.00
1623900731.641 3.96 -98765.00
1623900731.687 3.99 -98765.00
1623900731.733 4.02 -98765.00
1623900731.788 4.05 -98765.00
1623900731.834 4.08 -98765.00
1623900731.880 4.12 -98765.00
1623900731.926 4.15 -98765.00
1623900731.972 4.18 -98765.00
1623900732.018 4.15 -98765.00
1623900732.064 4.12 -98765.00
1623900732.110 4.08 -98765.00
1623900732.156 4.05 -98765.00
1623900732.202 4.02 -98765.00
1623900732.248 3.99 -98765.00
1623900732.294 3.96 -98765.00
1623900732.340 3.93 -98765.00
1623900732.386 3.90 -98765.00
1623900732.432 3.86 -98765.00
1623900732.478 3.83 -98765.00
1623900732.533 3.80 -98765.00
1623900732.579 3.77 -98765.00
1623900732.625 3.74 -98765.00
1623900732.671 3.71 -98765.00
1623900732.717 3.68 -98765.00
1623900732.763 3.64 -98765.00
1623900732.809 3.61 -98765.00
1623900732.855 3.58 -98765.00
1623900732.901 3.55 -98765.00
1623900732.947 3.52 -98765.00
1623900732.993 3.49 -98765.00
1623900733.039 3.46 -98765.00
1623900733.085 3.42 -98765.00
1623900733.131 3.39 -98765.00
1623900733.177 3.36 -98765.00
1623900733.223 3.33 -98765.00
1623900733.278 3.30 -98765.00
1623900733.324 3.27 -98765.00
1623900733.370 3.24 -98765.00
1623900733.416 3.20 -98765.00
1623900733.462 3.17 -98765.00
1623900733.508 3.14 -98765.00
1623900733.554 3.11 -98765.00
1623900733.600 3.08 -98765.00
1623900733.646 3.05 -98765.00
1623900733.692 3.02 -98765.00
1623900733.738 2.98 -98765.00
1623900733.784 2.95 -98765.00
1623900733.830 2.98 -98765.00
1623900733.876 3.02 -98765.00
1623900733.922 3.05 -98765.00
1623900733.968 3.08 -98765.00
1623900734.023 3.11 -98765.00
1623900734.069 3.14 -98765.00
1623900734.115 3.17 -98765.00
1623900734.161 3.20 -98765.00
1623900734.207 3.24 -98765.00
1623900734.253 3.27 -98765.00
1623900734.299 3.30 -98765.00
1623900734.345 3.33 -98765.00
1623900734.391 3.36 -98765.00
1623900734.437 3.39 -98765.00
1623900734.483 3.42 -98765.00
1623900734.529 3.46 -98765.00
1623900734.575 3.49 -98765.00
1623900734.621 3.52 -98765.00
1623900734.667 3.55 -98765.00
1623900734.713 3.58 -98765.00
1623900734.768 3.61 -98765.00
1623900734.814 3.64 -98765.00
1623900734.860 3.68 -98765.00
1623900734.906 3.71 -98765.00
1623900734.952 3.74 -98765.00
1623900734.998 3.77 -98765.00
1623900735.044 3.80 -98765.00
1623900735.090 3.83 -98765.00
1623900735.136 3.86 -98765.00
1623900735.182 3.90 -98765.00
1623900735.228 3.93 -98765.00
1623900735.273 3.96 -98765.00
1623900735.319 3.99 -98765.00
1623900735.365 4.02 -98765.00
1623900735.411 4.05 -98765.00
1623900735.457 4.08 -98765.00
1623900735.513 4.12 -98765.00
1623900735.559 4.15 -98765.00
1623900735.605 4.18 -98765.00
1623900735.650 4.15 -98765.00
1623900735.696 4.12 -98765.00
1623900735.742 4.08 -98765.00
1623900735.788 4.05 -98765.00
1623900735.834 4.02 -98765.00
1623900735.880 3.99 -98765.00
1623900735.926 3.96 -98765.00
1623900735.972 3.93 -98765.00
1623900736.018 3.90 -98765.00
1623900736.064 3.86 -98765.00
1623900736.110 3.83 -98765.00
1623900736.156 3.80 -98765.00
1623900736.202 3.77 -98765.00
1623900736.257 3.74 -98765.00
1623900736.303 3.71 -98765.00
1623900736.349 3.68 -98765.00
1623900736.395 3.64 -98765.00
1623900736.441 3.61 -98765.00
1623900736.487 3.58 -98765.00
1623900736.533 3.55 -98765.00
1623900736.579 3.52 -98765.00
1623900736.625 3.49 -98765.00
1623900736.671 3.46 -98765.00
1623900736.717 3.42 -98765.00
1623900736.763 3.39 -98765.00
1623900736.809 3.36 -98765.00
1623900736.855 3.33 -98765.00
1623900736.901 3.30 -98765.00
1623900736.947 3.27 -98765.00
1623900737.002 3.24 -98765.00
1623900737.048 3.20 -98765.00
1623900737.094 3.17 -98765.00
1623900737.140 3.14 -98765.00
1623900737.186 3.11 -98765.00
1623900737.232 3.08 -98765.00
1623900737.278 3.05 -98765.00
1623900737.324 3.02 -98765.00
1623900737.370 2.98 -98765.00
1623900737.416 2.95 -98765.00
1623900737.462 2.98 -98765.00
1623900737.508 3.02 -98765.00
1623900737.554 3.05 -98765.00
1623900737.600 3.08 -98765.00
1623900737.646 3.11 -98765.00
1623900737.692 3.14 -98765.00
1623900737.738 3.17 -98765.00
1623900737.793 3.20 -98765.00
1623900737.839 3.24 -98765.00
1623900737.885 3.27 -98765.00
1623900737.931 3.30 -98765.00
1623900737.977 3.33 -98765.00
1623900738.023 3.36 -98765.00
1623900738.069 3.39 -98765.00
1623900738.115 3.42 -98765.00
1623900738.161 3.46 -98765.00
1623900738.207 3.49 -98765.00
1623900738.253 3.52 -98765.00
1623900738.299 3.55 -98765.00
1623900738.345 3.58 -98765.00
1623900738.391 3.61 -98765.00
1623900738.437 3.64 -98765.00
1623900738.483 3.68 -98765.00
1623900738.538 3.71 -98765.00
1623900738.584 3.74 -98765.00
1623900738.630 3.77 -98765.00
1623900738.676 3.80 -98765.00
1623900738.722 3.83 -98765.00
1623900738.768 3.86 -98765.00
1623900738.814 3.90 -98765.00
1623900738.860 3.93 -98765.00
1623900738.906 3.96 -98765.00
1623900738.952 3.99 -98765.00
1623900738.998 4.02 -98765.00
1623900739.044 4.05 -98765.00
1623900739.089 4.08 -98765.00
1623900739.135 4.12 -98765.00
1623900739.181 4.15 -98765.00
1623900739.227 4.18 -98765.00
1623900739.283 4.15 -98765.00
1623900739.329 4.12 -98765.00
1623900739.375 4.08 -98765.00
1623900739.420 4.05 -98765.00
1623900739.466 4.02 -98765.00
1623900739.512 3.99 -98765.00
1623900739.558 3.96 -98765.00
1623900739.604 3.93 -98765.00
1623900739.650 3.90 -98765.00
1623900739.696 3.86 -98765.00
1623900739.742 3.83 -98765.00
1623900739.788 3.80 -98765.00
1623900739.834 3.77 -98765.00
1623900739.880 3.74 -98765.00
1623900739.926 3.71 -98765.00
1623900739.972 3.68 -98765.00
1623900740.028 3.64 -98765.00
1623900740.074 3.61 -98765.00
1623900740.119 3.58 -98765.00
1623900740.165 3.55 -98765.00
1623900740.211 3.52 -98765.00
1623900740.257 3.49 -98765.00
1623900740.303 3.46 -98765.00
1623900740.349 3.42 -98765.00
1623900740.395 3.39 -98765.00
1623900740.441 3.36 -98765.00
1623900740.487 3.33 -98765.00
1623900740.533 3.30 -98765.00
1623900740.579 3.27 -98765.00
1623900740.625 3.24 -98765.00
1623900740.671 3.20 -98765.00
1623900740.717 3.17 -98765.00
1623900740.772 3.14 -98765.00
1623900740.818 3.11 -98765.00
1623900740.864 3.08 -98765.00
1623900740.910 3.05 -98765.00
1623900740.956 3.02 -98765.00
1623900741.002 2.98 -98765.00
1623900741.048 2.95 -98765.00
1623900741.094 2.98 -98765.00
1623900741.140 3.02 -98765.00
1623900741.186 3.05 -98765.00
1623900741.232 3.08 -98765.00
1623900741.278 3.11 -98765.00
1623900741.324 3.14 -98765.00
1623900741.370 3.17 -98765.00
1623900741.416 3.20 -98765.00
1623900741.462 3.24 -98765.00
1623900741.517 3.27 -98765.00
1623900741.563 3.30 -98765.00
1623900741.609 3.33 -98765.00
1623900741.655 3.36 -98765.00
1623900741.701 3.39 -98765.00
1623900741.747 3.42 -98765.00
1623900741.793 3.46 -98765.00
1623900741.839 3.49 -98765.00
1623900741.885 3.52 -98765.00
1623900741.931 3.55 -98765.00
1623900741.977 3.58 -98765.00
1623900742.023 3.61 -98765.00
1623900742.069 3.64 -98765.00
1623900742.115 3.68 -98765.00
1623900742.161 3.71 -98765.00
1623900742.207 3.74 -98765.00
1623900742.262 3.77 -98765.00
1623900742.308 3.80 -98765.00
1623900742.354 3.83 -98765.00
1623900742.400 3.86 -98765.00
1623900742.446 3.90 -98765.00
1623900742.492 3.93 -98765.00
1623900742.538 3.96 -98765.00
1623900742.584 3.99 -98765.00
1623900742.630 4.02 -98765.00
1623900742.676 4.05 -98765.00
1623900742.722 4.08 -98765.00
1623900742.768 4.12 -98765.00
1623900742.814 4.15 -98765.00
1623900742.860 4.18 -98765.00
1623900742.906 4.15 -98765.00
1623900742.952 4.12 -98765.00
1623900743.007 4.08 -98765.00
1623900743.053 4.05 -98765.00
1623900743.099 4.02 -98765.00
1623900743.145 3.99 -98765.00
1623900743.191 3.96 -98765.00
1623900743.237 3.93 -98765.00
1623900743.283 3.90 -98765.00
1623900743.329 3.86 -98765.00
1623900743.375 3.83 -98765.00
1623900743.421 3.80 -98765.00
1623900743.466 3.77 -98765.00
1623900743.512 3.74 -98765.00
1623900743.558 3.71 -98765.00
1623900743.604 3.68 -98765.00
1623900743.650 3.64 -98765.00
1623900743.696 3.61 -98765.00
1623900743.752 3.58 -98765.00
1623900743.797 3.55 -98765.00
1623900743.843 3.52 -98765.00
1623900743.889 3.49 -98765.00
1623900743.935 3.46 -98765.00
1623900743.981 3.42 -98765.00
1623900744.027 3.39 -98765.00
1623900744.073 3.36 -98765.00
1623900744.119 3.33 -98765.00
1623900744.165 3.30 -98765.00
1623900744.211 3.27 -98765.00
1623900744.257 3.24 -98765.00
1623900744.303 3.20 -98765.00
1623900744.349 3.17 -98765.00
1623900744.395 3.14 -98765.00
1623900744.441 3.11 -98765.00
1623900744.496 3.08 -98765.00
1623900744.542 3.05 -98765.00
1623900744.588 3.02 -98765.00
1623900744.634 2.98 -98765.00
1623900744.680 2.95 -98765.00
1623900744.726 2.98 -98765.00
1623900744.772 3.02 -98765.00
1623900744.818 3.05 -98765.00
1623900744.864 3.08 -98765.00
1623900744.910 3.11 -98765.00
1623900744.956 3.14 -98765.00
1623900745.002 3.17 -98765.00
1623900745.048 3.20 -98765.00
1623900745.094 3.24 -98765.00
1623900745.140 3.27 -98765.00
1623900745.186 3.30 -98765.00
1623900745.241 3.33 -98765.00
1623900745.287 3.36 -98765.00
1623900745.333 3.39 -98765.00
1623900745.379 3.42 -98765.00
1623900745.425 3.46 -98765.00
1623900745.471 3.49 -98765.00
1623900745.517 3.52 -98765.00
1623900745.563 3.55 -98765.00
1623900745.609 3.58 -98765.00
1623900745.655 3.61 -98765.00
1623900745.701 3.64 -98765.00
1623900745.747 3.68 -98765.00
1623900745.793 3.71 -98765.00
1623900745.839 3.74 -98765.00
1623900745.885 3.77 -98765.00
1623900745.931 3.80 -98765.00
1623900745.986 3.83 -98765.00
1623900746.032 3.86 -98765.00
1623900746.078 3.90 -98765.00
1623900746.124 3.93 -98765.00
1623900746.170 3.96 -98765.00
1623900746.216 3.99 -98765.00
1623900746.262 4.02 -98765.00
1623900746.308 4.05 -98765.00
1623900746.354 4.08 -98765.00
1623900746.400 4.12 -98765.00
1623900746.445 4.15 -98765.00
1623900746.491 4.18 -98765.00
1623900746.537 4.15 -98765.00
1623900746.583 4.12 -98765.00
1623900746.629 4.08 -98765.00
1623900746.675 4.05 -98765.00
1623900746.731 4.02 -98765.00
1623900746.777 3.99 -98765.00
1623900746.822 3.96 -98765.00
1623900746.868 3.93 -98765.00
1623900746.914 3.90 -98765.00
1623900746.960 3.86 -98765.00
1623900747.006 3.83 -98765.00
1623900747.052 3.80 -98765.00
1623900747.098 3.77 -98765.00
1623900747.144 3.74 -98765.00
1623900747.190 3.71 -98765.00
1623900747.236 3.68 -98765.00
1623900747.282 3.64 -98765.00
1623900747.328 3.61 -98765.00
1623900747.374 3.58 -98765.00
1623900747.420 3.55 -98765.00
1623900747.475 3.52 -98765.00
1623900747.521 3.49 -98765.00
1623900747.567 3.46 -98765.00
1623900747.613 3.42 -98765.00
1623900747.659 3.39 -98765.00
1623900747.705 3.36 -98765.00
1623900747.751 3.33 -98765.00
1623900747.797 3.30 -98765.00
1623900747.843 3.27 -98765.00
1623900747.889 3.24 -98765.00
1623900747.935 3.20 -98765.00
1623900747.981 3.17 -98765.00
1623900748.027 3.14 -98765.00
1623900748.073 3.11 -98765.00
1623900748.119 3.08 -98765.00
