# time, angle (radians =pi is forward >pi is down), range (negative if no return detected)
1623563669.918 3.61 -98765.00
1623563669.957 3.58 -98765.00
1623563670.015 3.55 -98765.00
1623563670.054 3.52 -98765.00
1623563670.112 3.49 -98765.00
1623563670.151 3.46 -98765.00
1623563670.209 3.42 -98765.00
1623563670.248 3.39 -98765.00
1623563670.306 3.36 -98765.00
1623563670.345 3.33 -98765.00
1623563670.403 3.30 -98765.00
1623563670.442 3.27 -98765.00
1623563670.501 3.24 -98765.00
1623563670.539 3.20 -98765.00
1623563670.598 3.17 -98765.00
1623563670.636 3.14 -98765.00
1623563670.695 3.11 -98765.00
1623563670.733 3.08 -98765.00
1623563670.792 3.05 -98765.00
1623563670.831 3.02 -98765.00
1623563670.889 2.98 -98765.00
1623563670.928 2.95 -98765.00
1623563670.986 2.98 -98765.00
1623563671.025 3.02 -98765.00
1623563671.083 3.05 -98765.00
1623563671.122 3.08 -98765.00
1623563671.212 3.11 -98765.00
1623563673.212 3.17 -98765.00
1623563673.213 3.20 -98765.00
1623563673.271 3.24 -98765.00
1623563673.317 3.27 -98765.00
1623563673.363 3.30 -98765.00
1623563673.409 3.33 -98765.00
1623563673.455 3.36 -98765.00
1623563673.501 3.39 -98765.00
1623563673.547 3.42 -98765.00
1623563673.593 3.46 -98765.00
1623563673.639 3.49 -98765.00
1623563673.685 3.52 -98765.00
1623563673.731 3.55 -98765.00
1623563673.777 3.58 -98765.00
1623563673.823 3.61 -98765.00
1623563673.869 3.64 -98765.00
1623563673.915 3.68 -98765.00
1623563673.961 3.71 -98765.00
1623563674.016 3.74 -98765.00
1623563674.062 3.77 -98765.00
1623563674.108 3.80 -98765.00
1623563674.154 3.83 -98765.00
1623563674.200 3.86 -98765.00
1623563674.246 3.90 -98765.00
1623563674.292 3.93 -98765.00
1623563674.338 3.96 -98765.00
1623563674.384 3.99 -98765.00
1623563674.429 4.02 -98765.00
1623563674.475 4.05 -98765.00
1623563674.521 4.08 -98765.00
1623563674.567 4.12 -98765.00
1623563674.614 4.15 -98765.00
1623563674.659 4.18 -98765.00
1623563674.705 4.15 -98765.00
1623563674.760 4.12 -98765.00
1623563674.806 4.08 -98765.00
1623563674.852 4.05 -98765.00
1623563674.898 4.02 -98765.00
1623563674.944 3.99 -98765.00
1623563674.990 3.96 -98765.00
1623563675.036 3.93 -98765.00
1623563675.082 3.90 -98765.00
1623563675.128 3.86 -98765.00
1623563675.174 3.83 -98765.00
1623563675.220 3.80 -98765.00
1623563675.266 3.77 -98765.00
1623563675.312 3.74 -98765.00
1623563675.358 3.71 -98765.00
1623563675.404 3.68 -98765.00
1623563675.450 3.64 -98765.00
1623563675.505 3.61 -98765.00
1623563675.551 3.58 -98765.00
1623563675.597 3.55 -98765.00
1623563675.643 3.52 -98765.00
1623563675.689 3.49 -98765.00
1623563675.735 3.46 -98765.00
1623563675.781 3.42 -98765.00
1623563675.827 3.39 -98765.00
1623563675.873 3.36 -98765.00
1623563675.919 3.33 -98765.00
1623563675.965 3.30 -98765.00
1623563676.011 3.27 -98765.00
1623563676.057 3.24 -98765.00
1623563676.103 3.20 -98765.00
1623563676.149 3.17 -98765.00
1623563676.195 3.14 -98765.00
1623563676.250 3.11 -98765.00
1623563676.296 3.08 -98765.00
1623563676.342 3.05 -98765.00
1623563676.388 3.02 -98765.00
1623563676.434 2.98 -98765.00
1623563676.480 2.95 -98765.00
1623563676.526 2.98 -98765.00
1623563676.572 3.02 -98765.00
1623563676.618 3.05 -98765.00
1623563676.664 3.08 -98765.00
1623563676.710 3.11 -98765.00
1623563676.756 3.14 -98765.00
1623563676.802 3.17 -98765.00
1623563676.848 3.20 -98765.00
1623563676.894 3.24 -98765.00
1623563676.940 3.27 -98765.00
1623563676.995 3.30 -98765.00
1623563677.041 3.33 -98765.00
1623563677.087 3.36 -98765.00
1623563677.133 3.39 -98765.00
1623563677.179 3.42 -98765.00
1623563677.225 3.46 -98765.00
1623563677.271 3.49 -98765.00
1623563677.317 3.52 -98765.00
1623563677.363 3.55 -98765.00
1623563677.409 3.58 -98765.00
1623563677.455 3.61 -98765.00
1623563677.501 3.64 -98765.00
1623563677.546 3.68 -98765.00
1623563677.592 3.71 -98765.00
1623563677.638 3.74 -98765.00
1623563677.684 3.77 -98765.00
1623563677.740 3.80 -98765.00
1623563677.786 3.83 -98765.00
1623563677.832 3.86 -98765.00
1623563677.877 3.90 -98765.00
1623563677.923 3.93 -98765.00
1623563677.969 3.96 -98765.00
1623563678.015 3.99 -98765.00
1623563678.061 4.02 -98765.00
1623563678.107 4.05 -98765.00
1623563678.153 4.08 -98765.00
1623563678.199 4.12 -98765.00
1623563678.245 4.15 -98765.00
1623563678.291 4.18 -98765.00
1623563678.337 4.15 -98765.00
1623563678.383 4.12 -98765.00
1623563678.429 4.08 -98765.00
1623563678.484 4.05 -98765.00
1623563678.530 4.02 -98765.00
1623563678.576 3.99 -98765.00
1623563678.622 3.96 -98765.00
1623563678.668 3.93 -98765.00
1623563678.714 3.90 -98765.00
1623563678.760 3.86 -98765.00
1623563678.806 3.83 -98765.00
1623563678.852 3.80 -98765.00
1623563678.898 3.77 -98765.00
1623563678.944 3.74 -98765.00
1623563678.990 3.71 -98765.00
1623563679.036 3.68 -98765.00
1623563679.082 3.64 -98765.00
1623563679.128 3.61 -98765.00
1623563679.174 3.58 -98765.00
1623563679.229 3.55 -98765.00
1623563679.275 3.52 -98765.00
1623563679.321 3.49 -98765.00
1623563679.367 3.46 -98765.00
1623563679.413 3.42 -98765.00
1623563679.459 3.39 -98765.00
1623563679.505 3.36 -98765.00
1623563679.551 3.33 -98765.00
1623563679.597 3.30 -98765.00
1623563679.643 3.27 -98765.00
1623563679.689 3.24 -98765.00
1623563679.735 3.20 -98765.00
1623563679.781 3.17 -98765.00
1623563679.827 3.14 -98765.00
1623563679.873 3.11 -98765.00
1623563679.919 3.08 -98765.00
1623563679.974 3.05 -98765.00
1623563680.020 3.02 -98765.00
1623563680.066 2.98 -98765.00
1623563680.112 2.95 -98765.00
1623563680.158 2.98 -98765.00
1623563680.204 3.02 -98765.00
1623563680.250 3.05 -98765.00
1623563680.296 3.08 -98765.00
1623563680.342 3.11 -98765.00
1623563680.388 3.14 -98765.00
1623563680.434 3.17 -98765.00
1623563680.480 3.20 -98765.00
1623563680.526 3.24 -98765.00
1623563680.572 3.27 -98765.00
1623563680.617 3.30 -98765.00
1623563680.663 3.33 -98765.00
1623563680.719 3.36 -98765.00
1623563680.765 3.39 -98765.00
1623563680.811 3.42 -98765.00
1623563680.857 3.46 -98765.00
1623563680.903 3.49 -98765.00
1623563680.948 3.52 -98765.00
1623563680.994 3.55 -98765.00
1623563681.040 3.58 -98765.00
1623563681.086 3.61 -98765.00
1623563681.132 3.64 -98765.00
1623563681.178 3.68 -98765.00
1623563681.224 3.71 -98765.00
1623563681.270 3.74 -98765.00
1623563681.316 3.77 -98765.00
1623563681.362 3.80 -98765.00
1623563681.408 3.83 -98765.00
1623563681.463 3.86 -98765.00
1623563681.509 3.90 -98765.00
1623563681.555 3.93 -98765.00
1623563681.601 3.96 -98765.00
1623563681.647 3.99 -98765.00
1623563681.693 4.02 -98765.00
1623563681.739 4.05 -98765.00
1623563681.785 4.08 -98765.00
1623563681.831 4.12 -98765.00
1623563681.877 4.15 -98765.00
1623563681.923 4.18 -98765.00
1623563681.969 4.15 -98765.00
1623563682.015 4.12 -98765.00
1623563682.061 4.08 -98765.00
1623563682.107 4.05 -98765.00
1623563682.153 4.02 -98765.00
1623563682.208 3.99 -98765.00
1623563682.254 3.96 -98765.00
1623563682.300 3.93 -98765.00
1623563682.346 3.90 -98765.00
1623563682.392 3.86 -98765.00
1623563682.438 3.83 -98765.00
1623563682.484 3.80 -98765.00
1623563682.530 3.77 -98765.00
1623563682.576 3.74 -98765.00
1623563682.622 3.71 -98765.00
1623563682.668 3.68 -98765.00
1623563682.714 3.64 -98765.00
1623563682.760 3.61 -98765.00
1623563682.806 3.58 -98765.00
1623563682.852 3.55 -98765.00
1623563682.898 3.52 -98765.00
1623563682.953 3.49 -98765.00
1623563682.999 3.46 -98765.00
1623563683.045 3.42 -98765.00
1623563683.091 3.39 -98765.00
1623563683.137 3.36 -98765.00
1623563683.183 3.33 -98765.00
1623563683.229 3.30 -98765.00
1623563683.275 3.27 -98765.00
1623563683.321 3.24 -98765.00
1623563683.367 3.20 -98765.00
1623563683.413 3.17 -98765.00
1623563683.459 3.14 -98765.00
1623563683.505 3.11 -98765.00
1623563683.551 3.08 -98765.00
1623563683.597 3.05 -98765.00
1623563683.642 3.02 -98765.00
1623563683.698 2.98 -98765.00
1623563683.744 2.95 -98765.00
1623563683.790 2.98 -98765.00
1623563683.836 3.02 -98765.00
1623563683.882 3.05 -98765.00
1623563683.928 3.08 -98765.00
1623563683.973 3.11 -98765.00
1623563684.019 3.14 -98765.00
1623563684.065 3.17 -98765.00
1623563684.111 3.20 -98765.00
1623563684.157 3.24 -98765.00
1623563684.203 3.27 -98765.00
1623563684.249 3.30 -98765.00
1623563684.295 3.33 -98765.00
1623563684.341 3.36 -98765.00
1623563684.387 3.39 -98765.00
1623563684.442 3.42 -98765.00
1623563684.488 3.46 -98765.00
1623563684.534 3.49 -98765.00
1623563684.580 3.52 -98765.00
1623563684.626 3.55 -98765.00
1623563684.672 3.58 -98765.00
1623563684.718 3.61 -98765.00
1623563684.764 3.64 -98765.00
1623563684.810 3.68 -98765.00
1623563684.856 3.71 -98765.00
1623563684.902 3.74 -98765.00
1623563684.948 3.77 -98765.00
1623563684.994 3.80 -98765.00
1623563685.040 3.83 -98765.00
1623563685.086 3.86 -98765.00
1623563685.132 3.90 -98765.00
1623563685.187 3.93 -98765.00
1623563685.233 3.96 -98765.00
1623563685.279 3.99 -98765.00
1623563685.325 4.02 -98765.00
1623563685.371 4.05 -98765.00
1623563685.417 4.08 -98765.00
1623563685.463 4.12 -98765.00
1623563685.509 4.15 -98765.00
1623563685.555 4.18 -98765.00
1623563685.601 4.15 -98765.00
1623563685.647 4.12 -98765.00
1623563685.693 4.08 -98765.00
1623563685.739 4.05 -98765.00
1623563685.785 4.02 -98765.00
1623563685.831 3.99 -98765.00
1623563685.877 3.96 -98765.00
1623563685.932 3.93 -98765.00
1623563685.978 3.90 -98765.00
1623563686.024 3.86 -98765.00
1623563686.070 3.83 -98765.00
1623563686.116 3.80 -98765.00
1623563686.162 3.77 -98765.00
1623563686.208 3.74 -98765.00
1623563686.254 3.71 -98765.00
1623563686.300 3.68 -98765.00
1623563686.346 3.64 -98765.00
1623563686.392 3.61 -98765.00
1623563686.438 3.58 -98765.00
1623563686.484 3.55 -98765.00
1623563686.530 3.52 -98765.00
1623563686.576 3.49 -98765.00
1623563686.622 3.46 -98765.00
1623563686.677 3.42 -98765.00
1623563686.723 3.39 -98765.00
1623563686.769 3.36 -98765.00
1623563686.815 3.33 -98765.00
1623563686.861 3.30 -98765.00
1623563686.907 3.27 -98765.00
1623563686.953 3.24 -98765.00
1623563686.999 3.20 -98765.00
1623563687.045 3.17 -98765.00
1623563687.090 3.14 -98765.00
1623563687.136 3.11 -98765.00
1623563687.182 3.08 -98765.00
1623563687.228 3.05 -98765.00
1623563687.274 3.02 -98765.00
1623563687.320 2.98 -98765.00
1623563687.366 2.95 -98765.00
1623563687.421 2.98 -98765.00
1623563687.467 3.02 -98765.00
1623563687.513 3.05 -98765.00
1623563687.559 3.08 -98765.00
1623563687.605 3.11 -98765.00
1623563687.651 3.14 -98765.00
1623563687.697 3.17 -98765.00
1623563687.743 3.20 -98765.00
1623563687.789 3.24 -98765.00
1623563687.835 3.27 -98765.00
1623563687.881 3.30 -98765.00
1623563687.927 3.33 -98765.00
1623563687.973 3.36 -98765.00
1623563688.019 3.39 -98765.00
1623563688.065 3.42 -98765.00
1623563688.111 3.46 -98765.00
1623563688.166 3.49 -98765.00
1623563688.212 3.52 -98765.00
1623563688.258 3.55 -98765.00
1623563688.304 3.58 -98765.00
1623563688.350 3.61 -98765.00
1623563688.396 3.64 -98765.00
1623563688.442 3.68 -98765.00
1623563688.488 3.71 -98765.00
1623563688.534 3.74 -98765.00
1623563688.580 3.77 -98765.00
1623563688.626 3.80 -98765.00
1623563688.672 3.83 -98765.00
1623563688.718 3.86 -98765.00
1623563688.764 3.90 -98765.00
1623563688.810 3.93 -98765.00
1623563688.856 3.96 -98765.00
1623563688.911 3.99 -98765.00
1623563688.957 4.02 -98765.00
1623563689.003 4.05 -98765.00
1623563689.049 4.08 -98765.00
1623563689.095 4.12 -98765.00
1623563689.141 4.15 -98765.00
1623563689.187 4.18 -98765.00
1623563689.233 4.15 -98765.00
1623563689.279 4.12 -98765.00
1623563689.325 4.08 -98765.00
1623563689.371 4.05 -98765.00
1623563689.417 4.02 -98765.00
1623563689.463 3.99 -98765.00
1623563689.509 3.96 -98765.00
1623563689.555 3.93 -98765.00
1623563689.601 3.90 -98765.00
1623563689.656 3.86 -98765.00
1623563689.702 3.83 -98765.00
1623563689.748 3.80 -98765.00
1623563689.794 3.77 -98765.00
1623563689.840 3.74 -98765.00
1623563689.886 3.71 -98765.00
1623563689.932 3.68 -98765.00
1623563689.978 3.64 -98765.00
1623563690.024 3.61 -98765.00
1623563690.070 3.58 -98765.00
1623563690.116 3.55 -98765.00
1623563690.162 3.52 -98765.00
1623563690.208 3.49 -98765.00
1623563690.254 3.46 -98765.00
1623563690.300 3.42 -98765.00
1623563690.346 3.39 -98765.00
1623563690.401 3.36 -98765.00
1623563690.447 3.33 -98765.00
1623563690.493 3.30 -98765.00
1623563690.539 3.27 -98765.00
1623563690.585 3.24 -98765.00
1623563690.631 3.20 -98765.00
1623563690.677 3.17 -98765.00
1623563690.723 3.14 -98765.00
1623563690.768 3.11 -98765.00
1623563690.814 3.08 -98765.00
1623563690.860 3.05 -98765.00
1623563690.906 3.02 -98765.00
1623563690.952 2.98 -98765.00
1623563690.998 2.95 -98765.00
1623563691.044 2.98 -98765.00
1623563691.090 3.02 -98765.00
1623563691.145 3.05 -98765.00
1623563691.191 3.08 -98765.00
1623563691.237 3.11 -98765.00
1623563691.283 3.14 -98765.00
1623563691.329 3.17 -98765.00
1623563691.375 3.20 -98765.00
1623563691.421 3.24 -98765.00
1623563691.467 3.27 -98765.00
1623563691.513 3.30 -98765.00
1623563691.559 3.33 -98765.00
1623563691.605 3.36 -98765.00
1623563691.651 3.39 -98765.00
1623563691.697 3.42 -98765.00
1623563691.743 3.46 -98765.00
1623563691.789 3.49 -98765.00
1623563691.835 3.52 -98765.00
1623563691.890 3.55 -98765.00
1623563691.936 3.58 -98765.00
1623563691.982 3.61 -98765.00
1623563692.028 3.64 -98765.00
1623563692.074 3.68 -98765.00
1623563692.120 3.71 -98765.00
1623563692.166 3.74 -98765.00
1623563692.212 3.77 -98765.00
1623563692.258 3.80 -98765.00
1623563692.304 3.83 -98765.00
1623563692.350 3.86 -98765.00
1623563692.396 3.90 -98765.00
1623563692.442 3.93 -98765.00
1623563692.488 3.96 -98765.00
1623563692.534 3.99 -98765.00
1623563692.580 4.02 -98765.00
1623563692.635 4.05 -98765.00
1623563692.681 4.08 -98765.00
1623563692.727 4.12 -98765.00
1623563692.773 4.15 -98765.00
1623563692.819 4.18 -98765.00
1623563692.865 4.15 -98765.00
1623563692.911 4.12 -98765.00
1623563692.957 4.08 -98765.00
1623563693.003 4.05 -98765.00
1623563693.049 4.02 -98765.00
1623563693.095 3.99 -98765.00
1623563693.141 3.96 -98765.00
1623563693.187 3.93 -98765.00
1623563693.233 3.90 -98765.00
1623563693.279 3.86 -98765.00
1623563693.325 3.83 -98765.00
1623563693.380 3.80 -98765.00
1623563693.426 3.77 -98765.00
1623563693.472 3.74 -98765.00
1623563693.518 3.71 -98765.00
1623563693.564 3.68 -98765.00
1623563693.610 3.64 -98765.00
1623563693.656 3.61 -98765.00
1623563693.702 3.58 -98765.00
1623563693.748 3.55 -98765.00
1623563693.794 3.52 -98765.00
1623563693.839 3.49 -98765.00
1623563693.885 3.46 -98765.00
1623563693.931 3.42 -98765.00
1623563693.977 3.39 -98765.00
1623563694.023 3.36 -98765.00
1623563694.069 3.33 -98765.00
1623563694.125 3.30 -98765.00
1623563694.170 3.27 -98765.00
1623563694.216 3.24 -98765.00
1623563694.262 3.20 -98765.00
1623563694.308 3.17 -98765.00
1623563694.354 3.14 -98765.00
1623563694.400 3.11 -98765.00
1623563694.446 3.08 -98765.00
1623563694.492 3.05 -98765.00
1623563694.538 3.02 -98765.00
1623563694.584 2.98 -98765.00
1623563694.630 2.95 -98765.00
1623563694.676 2.98 -98765.00
1623563694.722 3.02 -98765.00
1623563694.768 3.05 -98765.00
1623563694.814 3.08 -98765.00
1623563694.869 3.11 -98765.00
1623563694.915 3.14 -98765.00
1623563694.961 3.17 -98765.00
1623563695.007 3.20 -98765.00
1623563695.053 3.24 -98765.00
1623563695.099 3.27 -98765.00
1623563695.145 3.30 -98765.00
1623563695.191 3.33 -98765.00
1623563695.237 3.36 -98765.00
1623563695.283 3.39 -98765.00
1623563695.329 3.42 -98765.00
1623563695.375 3.46 -98765.00
1623563695.421 3.49 -98765.00
1623563695.467 3.52 -98765.00
1623563695.513 3.55 -98765.00
1623563695.559 3.58 -98765.00
1623563695.614 3.61 -98765.00
1623563695.660 3.64 -98765.00
1623563695.706 3.68 -98765.00
1623563695.752 3.71 -98765.00
1623563695.798 3.74 -98765.00
1623563695.844 3.77 -98765.00
1623563695.890 3.80 -98765.00
1623563695.936 3.83 -98765.00
1623563695.982 3.86 -98765.00
1623563696.028 3.90 -98765.00
1623563696.074 3.93 -98765.00
1623563696.120 3.96 -98765.00
1623563696.166 3.99 -98765.00
1623563696.212 4.02 -98765.00
1623563696.258 4.05 -98765.00
1623563696.304 4.08 -98765.00
1623563696.350 4.12 -98765.00
1623563696.405 4.15 -98765.00
1623563696.451 4.18 -98765.00
1623563696.497 4.15 -98765.00
1623563696.543 4.12 -98765.00
1623563696.589 4.08 -98765.00
1623563696.635 4.05 -98765.00
1623563696.681 4.02 -98765.00
1623563696.727 3.99 -98765.00
1623563696.773 3.96 -98765.00
1623563696.819 3.93 -98765.00
1623563696.865 3.90 -98765.00
1623563696.911 3.86 -98765.00
1623563696.957 3.83 -98765.00
1623563697.003 3.80 -98765.00
1623563697.049 3.77 -98765.00
1623563697.095 3.74 -98765.00
1623563697.150 3.71 -98765.00
1623563697.196 3.68 -98765.00
1623563697.242 3.64 -98765.00
1623563697.288 3.61 -98765.00
1623563697.334 3.58 -98765.00
1623563697.380 3.55 -98765.00
1623563697.426 3.52 -98765.00
1623563697.472 3.49 -98765.00
1623563697.518 3.46 -98765.00
1623563697.564 3.42 -98765.00
1623563697.610 3.39 -98765.00
1623563697.656 3.36 -98765.00
1623563697.702 3.33 -98765.00
1623563697.748 3.30 -98765.00
1623563697.794 3.27 -98765.00
1623563697.840 3.24 -98765.00
1623563697.895 3.20 -98765.00
1623563697.941 3.17 -98765.00
1623563697.987 3.14 -98765.00
1623563698.033 3.11 -98765.00
1623563698.079 3.08 -98765.00
1623563698.125 3.05 -98765.00
1623563698.171 3.02 -98765.00
1623563698.217 2.98 -98765.00
1623563698.263 2.95 -98765.00
1623563698.309 2.98 -98765.00
1623563698.355 3.02 -98765.00
1623563698.401 3.05 -98765.00
1623563698.447 3.08 -98765.00
1623563698.493 3.11 -98765.00
1623563698.539 3.14 -98765.00
1623563698.584 3.17 -98765.00
1623563698.640 3.20 -98765.00
1623563698.686 3.24 -98765.00
1623563698.732 3.27 -98765.00
1623563698.778 3.30 -98765.00
1623563698.824 3.33 -98765.00
1623563698.870 3.36 -98765.00
1623563698.916 3.39 -98765.00
1623563698.961 3.42 -98765.00
1623563699.007 3.46 -98765.00
1623563699.053 3.49 -98765.00
1623563699.099 3.52 -98765.00
1623563699.145 3.55 -98765.00
1623563699.191 3.58 -98765.00
1623563699.237 3.61 -98765.00
1623563699.283 3.64 -98765.00
1623563699.329 3.68 -98765.00
1623563699.384 3.71 -98765.00
1623563699.430 3.74 -98765.00
1623563699.476 3.77 -98765.00
1623563699.548 3.80 -98765.00
1623563705.217 3.99 -98765.00
1623563705.256 4.02 -98765.00
1623563705.314 4.05 -98765.00
1623563705.353 4.08 -98765.00
1623563705.411 4.12 -98765.00
1623563705.450 4.15 -98765.00
1623563705.508 4.18 -98765.00
1623563705.547 4.15 -98765.00
1623563705.606 4.12 -98765.00
1623563705.644 4.08 -98765.00
1623563705.703 4.05 -98765.00
1623563705.741 4.02 -98765.00
1623563705.800 3.99 -98765.00
1623563705.838 3.96 -98765.00
1623563705.897 3.93 -98765.00
1623563705.936 3.90 -98765.00
1623563705.994 3.86 -98765.00
1623563706.033 3.83 -98765.00
1623563706.091 3.80 -98765.00
1623563706.130 3.77 -98765.00
1623563706.188 3.74 -98765.00
1623563706.227 3.71 -98765.00
1623563706.285 3.68 -98765.00
1623563706.324 3.64 -98765.00
1623563706.383 3.61 -98765.00
1623563706.421 3.58 -98765.00
1623563706.480 3.55 -98765.00
1623563706.518 3.52 -98765.00
1623563706.577 3.49 -98765.00
1623563706.616 3.46 -98765.00
1623563706.674 3.42 -98765.00
1623563706.713 3.39 -98765.00
1623563706.771 3.36 -98765.00
1623563706.810 3.33 -98765.00
1623563706.868 3.30 -98765.00
1623563706.907 3.27 -98765.00
1623563706.965 3.24 -98765.00
1623563707.004 3.20 -98765.00
1623563707.063 3.17 -98765.00
1623563707.101 3.14 -98765.00
1623563707.160 3.11 -98765.00
1623563707.198 3.08 -98765.00
1623563707.257 3.05 -98765.00
1623563707.296 3.02 -98765.00
1623563707.354 2.98 -98765.00
1623563707.393 2.95 -98765.00
1623563707.451 2.98 -98765.00
1623563707.490 3.02 -98765.00
1623563707.548 3.05 -98765.00
1623563707.587 3.08 -98765.00
1623563707.645 3.11 -98765.00
1623563707.684 3.14 -98765.00
1623563707.742 3.17 -98765.00
1623563707.781 3.20 -98765.00
1623563707.840 3.24 -98765.00
1623563707.878 3.27 -98765.00
1623563707.937 3.30 -98765.00
1623563707.975 3.33 -98765.00
1623563708.034 3.36 -98765.00
1623563708.073 3.39 -98765.00
1623563708.131 3.42 -98765.00
1623563708.170 3.46 -98765.00
1623563708.228 3.49 -98765.00
1623563708.267 3.52 -98765.00
1623563708.325 3.55 -98765.00
1623563708.364 3.58 -98765.00
1623563708.422 3.61 -98765.00
1623563708.461 3.64 -98765.00
1623563708.520 3.68 -98765.00
