# time, angle (radians =pi is forward >pi is down), range (negative if no return detected)
1623880783.461 3.60 -98765.00
1623880783.500 3.57 -98765.00
1623880783.558 3.53 -98765.00
1623880783.597 3.50 -98765.00
1623880783.655 3.47 -98765.00
1623880783.694 3.44 -98765.00
1623880783.752 3.41 -98765.00
1623880783.791 3.38 -98765.00
1623880783.850 3.35 -98765.00
1623880783.888 3.31 -98765.00
1623880783.947 3.28 -98765.00
1623880783.985 3.25 -98765.00
1623880784.044 3.22 -98765.00
1623880784.082 3.19 -98765.00
1623880784.141 3.16 -98765.00
1623880784.180 3.13 -98765.00
1623880784.238 3.09 -98765.00
1623880784.277 3.06 -98765.00
1623880784.335 3.03 -98765.00
1623880784.374 3.00 -98765.00
1623880784.432 2.97 -98765.00
1623880784.471 2.95 -98765.00
1623880784.529 2.98 -98765.00
1623880784.568 3.02 -98765.00
1623880784.626 3.05 -98765.00
1623880784.665 3.08 -98765.00
1623880784.746 3.11 -98765.00
1623880786.746 3.17 -98765.00
1623880786.747 3.20 -98765.00
1623880786.805 3.24 -98765.00
1623880786.851 3.27 -98765.00
1623880786.897 3.30 -98765.00
1623880786.943 3.33 -98765.00
1623880786.989 3.36 -98765.00
1623880787.035 3.39 -98765.00
1623880787.081 3.42 -98765.00
1623880787.127 3.46 -98765.00
1623880787.172 3.49 -98765.00
1623880787.218 3.52 -98765.00
1623880787.264 3.55 -98765.00
1623880787.310 3.58 -98765.00
1623880787.356 3.61 -98765.00
1623880787.402 3.64 -98765.00
1623880787.448 3.68 -98765.00
1623880787.494 3.71 -98765.00
1623880787.549 3.74 -98765.00
1623880787.595 3.77 -98765.00
1623880787.641 3.80 -98765.00
1623880787.687 3.83 -98765.00
1623880787.733 3.86 -98765.00
1623880787.779 3.90 -98765.00
1623880787.825 3.93 -98765.00
1623880787.871 3.96 -98765.00
1623880787.917 3.99 -98765.00
1623880787.963 4.02 -98765.00
1623880788.009 4.05 -98765.00
1623880788.055 4.08 -98765.00
1623880788.101 4.12 -98765.00
1623880788.147 4.15 -98765.00
1623880788.193 4.18 -98765.00
1623880788.239 4.15 -98765.00
1623880788.294 4.12 -98765.00
1623880788.340 4.08 -98765.00
1623880788.386 4.05 -98765.00
1623880788.432 4.02 -98765.00
1623880788.478 3.99 -98765.00
1623880788.524 3.96 -98765.00
1623880788.570 3.93 -98765.00
1623880788.616 3.90 -98765.00
1623880788.662 3.86 -98765.00
1623880788.708 3.83 -98765.00
1623880788.754 3.80 -98765.00
1623880788.800 3.77 -98765.00
1623880788.846 3.74 -98765.00
1623880788.892 3.71 -98765.00
1623880788.938 3.68 -98765.00
1623880788.984 3.64 -98765.00
1623880789.039 3.61 -98765.00
1623880789.085 3.58 -98765.00
1623880789.131 3.55 -98765.00
1623880789.177 3.52 -98765.00
1623880789.223 3.49 -98765.00
1623880789.269 3.46 -98765.00
1623880789.315 3.42 -98765.00
1623880789.361 3.39 -98765.00
1623880789.407 3.36 -98765.00
1623880789.453 3.33 -98765.00
1623880789.499 3.30 -98765.00
1623880789.545 3.27 -98765.00
1623880789.591 3.24 -98765.00
1623880789.637 3.20 -98765.00
1623880789.683 3.17 -98765.00
1623880789.729 3.14 -98765.00
1623880789.784 3.11 -98765.00
1623880789.830 3.08 -98765.00
1623880789.876 3.05 -98765.00
1623880789.922 3.02 -98765.00
1623880789.968 2.98 -98765.00
1623880790.014 2.95 -98765.00
1623880790.060 2.98 -98765.00
1623880790.106 3.02 -98765.00
1623880790.152 3.05 -98765.00
1623880790.198 3.08 -98765.00
1623880790.244 3.11 -98765.00
1623880790.290 3.14 -98765.00
1623880790.336 3.17 -98765.00
1623880790.382 3.20 -98765.00
1623880790.428 3.24 -98765.00
1623880790.473 3.27 -98765.00
1623880790.529 3.30 -98765.00
1623880790.575 3.33 -98765.00
1623880790.621 3.36 -98765.00
1623880790.667 3.39 -98765.00
1623880790.713 3.42 -98765.00
1623880790.759 3.46 -98765.00
1623880790.804 3.49 -98765.00
1623880790.850 3.52 -98765.00
1623880790.896 3.55 -98765.00
1623880790.942 3.58 -98765.00
1623880790.988 3.61 -98765.00
1623880791.034 3.64 -98765.00
1623880791.080 3.68 -98765.00
1623880791.126 3.71 -98765.00
1623880791.172 3.74 -98765.00
1623880791.218 3.77 -98765.00
1623880791.273 3.80 -98765.00
1623880791.319 3.83 -98765.00
1623880791.365 3.86 -98765.00
1623880791.411 3.90 -98765.00
1623880791.457 3.93 -98765.00
1623880791.503 3.96 -98765.00
1623880791.549 3.99 -98765.00
1623880791.595 4.02 -98765.00
1623880791.641 4.05 -98765.00
1623880791.687 4.08 -98765.00
1623880791.733 4.12 -98765.00
1623880791.779 4.15 -98765.00
1623880791.825 4.18 -98765.00
1623880791.871 4.15 -98765.00
1623880791.917 4.12 -98765.00
1623880791.963 4.08 -98765.00
1623880792.018 4.05 -98765.00
1623880792.064 4.02 -98765.00
1623880792.110 3.99 -98765.00
1623880792.156 3.96 -98765.00
1623880792.202 3.93 -98765.00
1623880792.248 3.90 -98765.00
1623880792.294 3.86 -98765.00
1623880792.340 3.83 -98765.00
1623880792.386 3.80 -98765.00
1623880792.432 3.77 -98765.00
1623880792.478 3.74 -98765.00
1623880792.524 3.71 -98765.00
1623880792.570 3.68 -98765.00
1623880792.616 3.64 -98765.00
1623880792.662 3.61 -98765.00
1623880792.708 3.58 -98765.00
1623880792.763 3.55 -98765.00
1623880792.809 3.52 -98765.00
1623880792.855 3.49 -98765.00
1623880792.901 3.46 -98765.00
1623880792.947 3.42 -98765.00
1623880792.993 3.39 -98765.00
1623880793.039 3.36 -98765.00
1623880793.085 3.33 -98765.00
1623880793.131 3.30 -98765.00
1623880793.177 3.27 -98765.00
1623880793.223 3.24 -98765.00
1623880793.269 3.20 -98765.00
1623880793.315 3.17 -98765.00
1623880793.361 3.14 -98765.00
1623880793.407 3.11 -98765.00
1623880793.453 3.08 -98765.00
1623880793.508 3.05 -98765.00
1623880793.554 3.02 -98765.00
1623880793.600 2.98 -98765.00
1623880793.646 2.95 -98765.00
1623880793.692 2.98 -98765.00
1623880793.738 3.02 -98765.00
1623880793.784 3.05 -98765.00
1623880793.830 3.08 -98765.00
1623880793.876 3.11 -98765.00
1623880793.922 3.14 -98765.00
1623880793.968 3.17 -98765.00
1623880794.013 3.20 -98765.00
1623880794.059 3.24 -98765.00
1623880794.105 3.27 -98765.00
1623880794.151 3.30 -98765.00
1623880794.197 3.33 -98765.00
1623880794.253 3.36 -98765.00
1623880794.299 3.39 -98765.00
1623880794.345 3.42 -98765.00
1623880794.390 3.46 -98765.00
1623880794.436 3.49 -98765.00
1623880794.482 3.52 -98765.00
1623880794.528 3.55 -98765.00
1623880794.574 3.58 -98765.00
1623880794.620 3.61 -98765.00
1623880794.666 3.64 -98765.00
1623880794.712 3.68 -98765.00
1623880794.758 3.71 -98765.00
1623880794.804 3.74 -98765.00
1623880794.850 3.77 -98765.00
1623880794.896 3.80 -98765.00
1623880794.942 3.83 -98765.00
1623880794.997 3.86 -98765.00
1623880795.043 3.90 -98765.00
1623880795.089 3.93 -98765.00
1623880795.135 3.96 -98765.00
1623880795.181 3.99 -98765.00
1623880795.227 4.02 -98765.00
1623880795.273 4.05 -98765.00
1623880795.319 4.08 -98765.00
1623880795.365 4.12 -98765.00
1623880795.411 4.15 -98765.00
1623880795.457 4.18 -98765.00
1623880795.503 4.15 -98765.00
1623880795.549 4.12 -98765.00
1623880795.595 4.08 -98765.00
1623880795.641 4.05 -98765.00
1623880795.687 4.02 -98765.00
1623880795.742 3.99 -98765.00
1623880795.788 3.96 -98765.00
1623880795.834 3.93 -98765.00
1623880795.880 3.90 -98765.00
1623880795.926 3.86 -98765.00
1623880795.972 3.83 -98765.00
1623880796.018 3.80 -98765.00
1623880796.064 3.77 -98765.00
1623880796.110 3.74 -98765.00
1623880796.156 3.71 -98765.00
1623880796.202 3.68 -98765.00
1623880796.248 3.64 -98765.00
1623880796.294 3.61 -98765.00
1623880796.340 3.58 -98765.00
1623880796.386 3.55 -98765.00
1623880796.432 3.52 -98765.00
1623880796.487 3.49 -98765.00
1623880796.533 3.46 -98765.00
1623880796.579 3.42 -98765.00
1623880796.625 3.39 -98765.00
1623880796.671 3.36 -98765.00
1623880796.717 3.33 -98765.00
1623880796.763 3.30 -98765.00
1623880796.809 3.27 -98765.00
1623880796.855 3.24 -98765.00
1623880796.901 3.20 -98765.00
1623880796.947 3.17 -98765.00
1623880796.993 3.14 -98765.00
1623880797.039 3.11 -98765.00
1623880797.085 3.08 -98765.00
1623880797.131 3.05 -98765.00
1623880797.177 3.02 -98765.00
1623880797.232 2.98 -98765.00
1623880797.278 2.95 -98765.00
1623880797.324 2.98 -98765.00
1623880797.370 3.02 -98765.00
1623880797.416 3.05 -98765.00
1623880797.462 3.08 -98765.00
1623880797.508 3.11 -98765.00
1623880797.554 3.14 -98765.00
1623880797.600 3.17 -98765.00
1623880797.646 3.20 -98765.00
1623880797.691 3.24 -98765.00
1623880797.737 3.27 -98765.00
1623880797.783 3.30 -98765.00
1623880797.829 3.33 -98765.00
1623880797.875 3.36 -98765.00
1623880797.921 3.39 -98765.00
1623880797.977 3.42 -98765.00
1623880798.023 3.46 -98765.00
1623880798.068 3.49 -98765.00
1623880798.114 3.52 -98765.00
1623880798.160 3.55 -98765.00
1623880798.206 3.58 -98765.00
1623880798.252 3.61 -98765.00
1623880798.298 3.64 -98765.00
1623880798.344 3.68 -98765.00
1623880798.390 3.71 -98765.00
1623880798.436 3.74 -98765.00
1623880798.482 3.77 -98765.00
1623880798.528 3.80 -98765.00
1623880798.574 3.83 -98765.00
1623880798.620 3.86 -98765.00
1623880798.666 3.90 -98765.00
1623880798.721 3.93 -98765.00
1623880798.767 3.96 -98765.00
1623880798.813 3.99 -98765.00
1623880798.859 4.02 -98765.00
1623880798.905 4.05 -98765.00
1623880798.951 4.08 -98765.00
1623880798.997 4.12 -98765.00
1623880799.043 4.15 -98765.00
1623880799.089 4.18 -98765.00
1623880799.135 4.15 -98765.00
1623880799.181 4.12 -98765.00
1623880799.227 4.08 -98765.00
1623880799.273 4.05 -98765.00
1623880799.319 4.02 -98765.00
1623880799.365 3.99 -98765.00
1623880799.411 3.96 -98765.00
1623880799.466 3.93 -98765.00
1623880799.512 3.90 1.50
1623880799.558 3.86 1.50
1623880799.604 3.83 1.50
1623880799.650 3.80 1.55
1623880799.696 3.77 1.50
1623880799.742 3.74 1.55
1623880799.788 3.71 1.50
1623880799.834 3.68 1.50
1623880799.880 3.64 1.50
1623880799.926 3.61 1.60
1623880799.972 3.58 1.50
1623880800.018 3.55 1.50
1623880800.064 3.52 1.50
1623880800.110 3.49 1.55
1623880800.156 3.46 2.15
1623880800.211 3.42 1.75
1623880800.257 3.39 1.70
1623880800.303 3.36 1.75
1623880800.349 3.33 1.80
1623880800.395 3.30 1.75
1623880800.441 3.27 1.65
1623880800.487 3.24 1.90
1623880800.533 3.20 -98765.00
1623880800.579 3.17 -98765.00
1623880800.625 3.14 -98765.00
1623880800.671 3.11 -98765.00
1623880800.717 3.08 -98765.00
1623880800.763 3.05 -98765.00
1623880800.809 3.02 -98765.00
1623880800.855 2.98 -98765.00
1623880800.901 2.95 -98765.00
1623880800.956 2.98 -98765.00
1623880801.002 3.02 -98765.00
1623880801.048 3.05 -98765.00
1623880801.094 3.08 -98765.00
1623880801.140 3.11 -98765.00
1623880801.186 3.14 -98765.00
1623880801.232 3.17 -98765.00
1623880801.278 3.20 -98765.00
1623880801.324 3.24 1.95
1623880801.370 3.27 1.85
1623880801.416 3.30 1.85
1623880801.462 3.33 1.90
1623880801.508 3.36 1.55
1623880801.554 3.39 1.65
1623880801.600 3.42 1.60
1623880801.646 3.46 1.65
1623880801.701 3.49 1.65
1623880801.747 3.52 1.60
1623880801.793 3.55 1.65
1623880801.839 3.58 1.70
1623880801.885 3.61 1.55
1623880801.931 3.64 1.70
1623880801.977 3.68 1.75
1623880802.023 3.71 1.65
1623880802.069 3.74 1.65
1623880802.115 3.77 1.65
1623880802.161 3.80 1.60
1623880802.207 3.83 1.70
1623880802.253 3.86 1.90
1623880802.299 3.90 1.95
1623880802.345 3.93 -98765.00
1623880802.391 3.96 -98765.00
1623880802.446 3.99 -98765.00
1623880802.492 4.02 -98765.00
1623880802.538 4.05 -98765.00
1623880802.584 4.08 -98765.00
1623880802.630 4.12 -98765.00
1623880802.676 4.15 -98765.00
1623880802.722 4.18 -98765.00
1623880802.768 4.15 -98765.00
1623880802.814 4.12 -98765.00
1623880802.860 4.08 -98765.00
1623880802.905 4.05 -98765.00
1623880802.951 4.02 -98765.00
1623880802.997 3.99 -98765.00
1623880803.043 3.96 -98765.00
1623880803.089 3.93 -98765.00
1623880803.135 3.90 2.35
1623880803.191 3.86 1.85
1623880803.237 3.83 1.90
1623880803.282 3.80 -98765.00
1623880803.328 3.77 1.95
1623880803.374 3.74 -98765.00
1623880803.420 3.71 -98765.00
1623880803.466 3.68 1.90
1623880803.512 3.64 1.75
1623880803.558 3.61 1.90
1623880803.604 3.58 1.95
1623880803.650 3.55 1.60
1623880803.696 3.52 1.65
1623880803.742 3.49 1.60
1623880803.788 3.46 1.65
1623880803.834 3.42 1.55
1623880803.880 3.39 1.55
1623880803.935 3.36 1.60
1623880803.981 3.33 1.50
1623880804.027 3.30 1.65
1623880804.073 3.27 1.50
1623880804.119 3.24 1.55
1623880804.165 3.20 -98765.00
1623880804.211 3.17 -98765.00
1623880804.257 3.14 -98765.00
1623880804.303 3.11 -98765.00
1623880804.349 3.08 -98765.00
1623880804.395 3.05 -98765.00
1623880804.441 3.02 -98765.00
1623880804.487 2.98 -98765.00
1623880804.533 2.95 -98765.00
1623880804.579 2.98 -98765.00
1623880804.625 3.02 -98765.00
1623880804.680 3.05 -98765.00
1623880804.726 3.08 -98765.00
1623880804.772 3.11 -98765.00
1623880804.818 3.14 -98765.00
1623880804.864 3.17 -98765.00
1623880804.910 3.20 -98765.00
1623880804.956 3.24 1.50
1623880805.002 3.27 1.50
1623880805.048 3.30 1.70
1623880805.094 3.33 1.50
1623880805.140 3.36 1.50
1623880805.186 3.39 1.75
1623880805.232 3.42 1.80
1623880805.278 3.46 1.75
1623880805.324 3.49 1.75
1623880805.370 3.52 1.75
1623880805.416 3.55 -98765.00
1623880805.471 3.58 2.05
1623880805.517 3.61 1.95
1623880805.563 3.64 -98765.00
1623880805.609 3.68 1.90
1623880805.655 3.71 2.05
1623880805.701 3.74 -98765.00
1623880805.747 3.77 -98765.00
1623880805.793 3.80 -98765.00
1623880805.839 3.83 -98765.00
1623880805.885 3.86 -98765.00
1623880805.931 3.90 -98765.00
1623880805.977 3.93 -98765.00
1623880806.023 3.96 -98765.00
1623880806.069 3.99 -98765.00
1623880806.115 4.02 -98765.00
1623880806.161 4.05 -98765.00
1623880806.216 4.08 -98765.00
1623880806.262 4.12 -98765.00
1623880806.308 4.15 -98765.00
1623880806.354 4.18 -98765.00
1623880806.400 4.15 -98765.00
1623880806.446 4.12 -98765.00
1623880806.492 4.08 -98765.00
1623880806.538 4.05 -98765.00
1623880806.584 4.02 -98765.00
1623880806.630 3.99 -98765.00
1623880806.676 3.96 -98765.00
1623880806.722 3.93 -98765.00
1623880806.768 3.90 -98765.00
1623880806.814 3.86 -98765.00
1623880806.860 3.83 -98765.00
1623880806.906 3.80 -98765.00
1623880806.961 3.77 -98765.00
1623880807.007 3.74 -98765.00
1623880807.053 3.71 -98765.00
1623880807.099 3.68 -98765.00
1623880807.145 3.64 -98765.00
1623880807.191 3.61 -98765.00
1623880807.237 3.58 -98765.00
1623880807.283 3.55 -98765.00
1623880807.329 3.52 -98765.00
1623880807.375 3.49 -98765.00
1623880807.421 3.46 -98765.00
1623880807.467 3.42 -98765.00
1623880807.513 3.39 -98765.00
1623880807.559 3.36 -98765.00
1623880807.605 3.33 1.80
1623880807.651 3.30 -98765.00
1623880807.706 3.27 -98765.00
1623880807.752 3.24 2.05
1623880807.798 3.20 -98765.00
1623880807.844 3.17 -98765.00
1623880807.890 3.14 -98765.00
1623880807.936 3.11 -98765.00
1623880807.982 3.08 -98765.00
1623880808.028 3.05 -98765.00
1623880808.073 3.02 -98765.00
1623880808.119 2.98 -98765.00
1623880808.165 2.95 -98765.00
1623880808.211 2.98 -98765.00
1623880808.257 3.02 -98765.00
1623880808.303 3.05 -98765.00
1623880808.349 3.08 -98765.00
1623880808.395 3.11 -98765.00
1623880808.450 3.14 -98765.00
1623880808.496 3.17 -98765.00
1623880808.542 3.20 -98765.00
1623880808.588 3.24 1.80
1623880808.634 3.27 -98765.00
1623880808.680 3.30 1.95
1623880808.726 3.33 1.70
1623880808.772 3.36 -98765.00
1623880808.818 3.39 1.85
1623880808.864 3.42 1.70
1623880808.910 3.46 1.60
1623880808.956 3.49 -98765.00
1623880809.002 3.52 -98765.00
1623880809.048 3.55 -98765.00
1623880809.094 3.58 -98765.00
1623880809.140 3.61 -98765.00
1623880809.195 3.64 1.70
1623880809.241 3.68 -98765.00
1623880809.287 3.71 -98765.00
1623880809.333 3.74 -98765.00
1623880809.379 3.77 -98765.00
1623880809.425 3.80 -98765.00
1623880809.471 3.83 -98765.00
1623880809.517 3.86 -98765.00
1623880809.563 3.90 -98765.00
1623880809.609 3.93 -98765.00
1623880809.655 3.96 -98765.00
1623880809.701 3.99 -98765.00
1623880809.747 4.02 -98765.00
1623880809.793 4.05 -98765.00
1623880809.839 4.08 -98765.00
1623880809.885 4.12 -98765.00
1623880809.940 4.15 -98765.00
1623880809.986 4.18 -98765.00
1623880810.032 4.15 -98765.00
1623880810.078 4.12 -98765.00
1623880810.124 4.08 -98765.00
1623880810.170 4.05 -98765.00
1623880810.216 4.02 -98765.00
1623880810.262 3.99 -98765.00
1623880810.308 3.96 -98765.00
1623880810.354 3.93 -98765.00
1623880810.400 3.90 -98765.00
1623880810.446 3.86 -98765.00
1623880810.492 3.83 -98765.00
1623880810.538 3.80 -98765.00
1623880810.584 3.77 -98765.00
1623880810.630 3.74 -98765.00
1623880810.685 3.71 -98765.00
1623880810.731 3.68 -98765.00
1623880810.777 3.64 -98765.00
1623880810.823 3.61 -98765.00
1623880810.869 3.58 -98765.00
1623880810.915 3.55 -98765.00
1623880810.961 3.52 -98765.00
1623880811.007 3.49 -98765.00
1623880811.053 3.46 -98765.00
1623880811.099 3.42 -98765.00
1623880811.145 3.39 -98765.00
1623880811.191 3.36 -98765.00
1623880811.237 3.33 -98765.00
1623880811.283 3.30 -98765.00
1623880811.329 3.27 -98765.00
1623880811.375 3.24 -98765.00
1623880811.430 3.20 -98765.00
1623880811.476 3.17 -98765.00
1623880811.522 3.14 -98765.00
1623880811.568 3.11 -98765.00
1623880811.614 3.08 -98765.00
1623880811.660 3.05 -98765.00
1623880811.706 3.02 -98765.00
1623880811.752 2.98 -98765.00
1623880811.798 2.95 -98765.00
1623880811.844 2.98 -98765.00
1623880811.890 3.02 -98765.00
1623880811.936 3.05 -98765.00
1623880811.982 3.08 -98765.00
1623880812.028 3.11 -98765.00
1623880812.074 3.14 -98765.00
1623880812.120 3.17 -98765.00
1623880812.166 3.20 -98765.00
1623880812.221 3.24 -98765.00
1623880812.267 3.27 -98765.00
1623880812.313 3.30 -98765.00
1623880812.359 3.33 -98765.00
1623880812.405 3.36 -98765.00
1623880812.451 3.39 -98765.00
1623880812.497 3.42 -98765.00
1623880812.543 3.46 -98765.00
1623880812.589 3.49 -98765.00
1623880812.635 3.52 -98765.00
1623880812.681 3.55 -98765.00
1623880812.727 3.58 -98765.00
1623880812.773 3.61 -98765.00
1623880812.819 3.64 -98765.00
1623880812.865 3.68 -98765.00
1623880812.911 3.71 -98765.00
1623880812.966 3.74 -98765.00
1623880813.012 3.77 -98765.00
1623880813.058 3.80 -98765.00
1623880813.104 3.83 -98765.00
1623880813.150 3.86 -98765.00
1623880813.196 3.90 -98765.00
1623880813.242 3.93 -98765.00
1623880813.288 3.96 -98765.00
1623880813.334 3.99 -98765.00
1623880813.380 4.02 -98765.00
1623880813.426 4.05 -98765.00
1623880813.472 4.08 -98765.00
1623880813.518 4.12 -98765.00
1623880813.564 4.15 -98765.00
1623880813.610 4.18 -98765.00
1623880813.655 4.15 -98765.00
1623880813.711 4.12 -98765.00
1623880813.757 4.08 -98765.00
1623880813.803 4.05 -98765.00
1623880813.849 4.02 -98765.00
1623880813.895 3.99 -98765.00
1623880813.941 3.96 -98765.00
1623880813.986 3.93 -98765.00
1623880814.033 3.90 -98765.00
1623880814.079 3.86 -98765.00
1623880814.125 3.83 -98765.00
1623880814.171 3.80 -98765.00
1623880814.217 3.77 -98765.00
1623880814.263 3.74 -98765.00
1623880814.309 3.71 -98765.00
1623880814.354 3.68 -98765.00
1623880814.400 3.64 -98765.00
1623880814.456 3.61 -98765.00
1623880814.502 3.58 -98765.00
1623880814.548 3.55 -98765.00
1623880814.594 3.52 -98765.00
1623880814.640 3.49 -98765.00
1623880814.686 3.46 -98765.00
1623880814.731 3.42 -98765.00
1623880814.777 3.39 -98765.00
1623880814.823 3.36 -98765.00
1623880814.869 3.33 -98765.00
1623880814.915 3.30 -98765.00
1623880814.961 3.27 -98765.00
1623880815.007 3.24 -98765.00
1623880815.053 3.20 -98765.00
1623880815.099 3.17 -98765.00
1623880815.145 3.14 -98765.00
1623880815.200 3.11 -98765.00
1623880815.246 3.08 -98765.00
1623880815.292 3.05 -98765.00
1623880815.338 3.02 -98765.00
1623880815.384 2.98 -98765.00
1623880815.430 2.95 -98765.00
1623880815.476 2.98 -98765.00
1623880815.522 3.02 -98765.00
1623880815.568 3.05 -98765.00
1623880815.614 3.08 -98765.00
1623880815.660 3.11 -98765.00
1623880815.706 3.14 -98765.00
1623880815.752 3.17 -98765.00
1623880815.798 3.20 -98765.00
1623880815.844 3.24 -98765.00
1623880815.890 3.27 -98765.00
1623880815.945 3.30 -98765.00
1623880815.991 3.33 -98765.00
1623880816.037 3.36 -98765.00
1623880816.083 3.39 -98765.00
1623880816.129 3.42 -98765.00
1623880816.175 3.46 -98765.00
1623880816.221 3.49 -98765.00
1623880816.267 3.52 -98765.00
1623880816.313 3.55 -98765.00
1623880816.359 3.58 -98765.00
1623880816.405 3.61 -98765.00
1623880816.451 3.64 -98765.00
1623880816.497 3.68 -98765.00
1623880816.543 3.71 -98765.00
1623880816.589 3.74 -98765.00
1623880816.635 3.77 -98765.00
1623880816.690 3.80 -98765.00
1623880816.736 3.83 -98765.00
1623880816.782 3.86 -98765.00
1623880816.828 3.90 -98765.00
1623880816.874 3.93 -98765.00
1623880816.920 3.96 -98765.00
